time(s)	accl(g)
0.000	0.000000000000
0.001	0.000119818224
0.002	0.000239636448
0.003	0.000359454672
0.004	0.000479272896
0.005	0.000599091120
0.006	0.000718909344
0.007	0.000718988232
0.008	0.000719067120
0.009	0.000719146008
0.010	0.000719224896
0.011	0.000719303784
0.012	0.000719382672
0.013	0.000719452752
0.014	0.000719522832
0.015	0.000719592912
0.016	0.000719662992
0.017	0.000719733072
0.018	0.000719803152
0.019	0.000719868120
0.020	0.000719933088
0.021	0.000719998056
0.022	0.000720063024
0.023	0.000720127992
0.024	0.000720192960
0.025	0.000720251640
0.026	0.000720310320
0.027	0.000720369000
0.028	0.000720427680
0.029	0.000720486360
0.030	0.000720545040
0.031	0.000720599040
0.032	0.000720653040
0.033	0.000720707040
0.034	0.000720761040
0.035	0.000720815040
0.036	0.000720869040
0.037	0.000720917640
0.038	0.000720966240
0.039	0.000721014840
0.040	0.000721063440
0.041	0.000721112040
0.042	0.000721160640
0.043	0.000721203120
0.044	0.000721245600
0.045	0.000721288080
0.046	0.000721330560
0.047	0.000721373040
0.048	0.000721415520
0.049	0.000721451880
0.050	0.000721488240
0.051	0.000721524600
0.052	0.000721560960
0.053	0.000721597320
0.054	0.000721633680
0.055	0.000721665840
0.056	0.000721698000
0.057	0.000721730160
0.058	0.000721762320
0.059	0.000721794480
0.060	0.000721826640
0.061	0.000721853040
0.062	0.000721879440
0.063	0.000721905840
0.064	0.000721932240
0.065	0.000721958640
0.066	0.000721985040
0.067	0.000722005200
0.068	0.000722025360
0.069	0.000722045520
0.070	0.000722065680
0.071	0.000722085840
0.072	0.000722106000
0.073	0.000722121360
0.074	0.000722136720
0.075	0.000722152080
0.076	0.000722167440
0.077	0.000722182800
0.078	0.000722198160
0.079	0.000722208600
0.080	0.000722219040
0.081	0.000722229480
0.082	0.000722239920
0.083	0.000722250360
0.084	0.000722260800
0.085	0.000722267400
0.086	0.000722274000
0.087	0.000722280600
0.088	0.000722287200
0.089	0.000722293800
0.090	0.000722300400
0.091	0.000722306160
0.092	0.000722311920
0.093	0.000722317680
0.094	0.000722323440
0.095	0.000722329200
0.096	0.000722334960
0.097	0.000722340360
0.098	0.000722345760
0.099	0.000722351160
0.100	0.000722356560
0.101	0.000722361960
0.102	0.000722367360
0.103	0.000722370720
0.104	0.000722374080
0.105	0.000722377440
0.106	0.000722380800
0.107	0.000722384160
0.108	0.000722387520
0.109	0.000722389680
0.110	0.000722391840
0.111	0.000722394000
0.112	0.000722396160
0.113	0.000722398320
0.114	0.000722400480
0.115	0.000722397720
0.116	0.000722394960
0.117	0.000722392200
0.118	0.000722389440
0.119	0.000722386680
0.120	0.000722383920
0.121	0.000722370000
0.122	0.000722356080
0.123	0.000722342160
0.124	0.000722328240
0.125	0.000722314320
0.126	0.000722300400
0.127	0.000722273880
0.128	0.000722247360
0.129	0.000722220840
0.130	0.000722194320
0.131	0.000722167800
0.132	0.000722141280
0.133	0.000722100000
0.134	0.000722058720
0.135	0.000722017440
0.136	0.000721976160
0.137	0.000721934880
0.138	0.000721893600
0.139	0.000721833000
0.140	0.000721772400
0.141	0.000721711800
0.142	0.000721651200
0.143	0.000721590600
0.144	0.000721530000
0.145	0.000721460520
0.146	0.000721391040
0.147	0.000721321560
0.148	0.000721252080
0.149	0.000721182600
0.150	0.000721113120
0.151	0.000721051680
0.152	0.000720990240
0.153	0.000720928800
0.154	0.000720867360
0.155	0.000720805920
0.156	0.000720744480
0.157	0.000720713400
0.158	0.000720682320
0.159	0.000720651240
0.160	0.000720620160
0.161	0.000720589080
0.162	0.000720558000
0.163	0.000720581160
0.164	0.000720604320
0.165	0.000720627480
0.166	0.000720650640
0.167	0.000720673800
0.168	0.000720696960
0.169	0.000720789120
0.170	0.000720881280
0.171	0.000720973440
0.172	0.000721065600
0.173	0.000721157760
0.174	0.000721249920
0.175	0.000721416720
0.176	0.000721583520
0.177	0.000721750320
0.178	0.000721917120
0.179	0.000722083920
0.180	0.000722250720
0.181	0.000722471880
0.182	0.000722693040
0.183	0.000722914200
0.184	0.000723135360
0.185	0.000723356520
0.186	0.000723577680
0.187	0.000723801840
0.188	0.000724026000
0.189	0.000724250160
0.190	0.000724474320
0.191	0.000724698480
0.192	0.000724922640
0.193	0.000725095200
0.194	0.000725267760
0.195	0.000725440320
0.196	0.000725612880
0.197	0.000725785440
0.198	0.000725958000
0.199	0.000726031080
0.200	0.000726104160
0.201	0.000726177240
0.202	0.000726250320
0.203	0.000726323400
0.204	0.000726396480
0.205	0.000726346440
0.206	0.000726296400
0.207	0.000726246360
0.208	0.000726196320
0.209	0.000726146280
0.210	0.000726096240
0.211	0.000725927880
0.212	0.000725759520
0.213	0.000725591160
0.214	0.000725422800
0.215	0.000725254440
0.216	0.000725086080
0.217	0.000724817520
0.218	0.000724548960
0.219	0.000724280400
0.220	0.000724011840
0.221	0.000723743280
0.222	0.000723474720
0.223	0.000723131040
0.224	0.000722787360
0.225	0.000722443680
0.226	0.000722100000
0.227	0.000721756320
0.228	0.000721412640
0.229	0.000721015236
0.230	0.000720617832
0.231	0.000720220428
0.232	0.000719823024
0.233	0.000719425620
0.234	0.000719028216
0.235	0.000718583844
0.236	0.000718139472
0.237	0.000717695100
0.238	0.000717250728
0.239	0.000716806356
0.240	0.000716361984
0.241	0.000715860480
0.242	0.000715358976
0.243	0.000714857472
0.244	0.000714355968
0.245	0.000713854464
0.246	0.000713352960
0.247	0.000712814868
0.248	0.000712276776
0.249	0.000711738684
0.250	0.000711200592
0.251	0.000710662500
0.252	0.000710124408
0.253	0.000709659312
0.254	0.000709194216
0.255	0.000708729120
0.256	0.000708264024
0.257	0.000707798928
0.258	0.000707333832
0.259	0.000707131824
0.260	0.000706929816
0.261	0.000706727808
0.262	0.000706525800
0.263	0.000706323792
0.264	0.000706121784
0.265	0.000706374852
0.266	0.000706627920
0.267	0.000706880988
0.268	0.000707134056
0.269	0.000707387124
0.270	0.000707640192
0.271	0.000708480108
0.272	0.000709320024
0.273	0.000710159940
0.274	0.000710999856
0.275	0.000711839772
0.276	0.000712679688
0.277	0.000714148380
0.278	0.000715617072
0.279	0.000717085764
0.280	0.000718554456
0.281	0.000720023148
0.282	0.000721491840
0.283	0.000723494760
0.284	0.000725497680
0.285	0.000727500600
0.286	0.000729503520
0.287	0.000731506440
0.288	0.000733509360
0.289	0.000735630480
0.290	0.000737751600
0.291	0.000739872720
0.292	0.000741993840
0.293	0.000744114960
0.294	0.000746236080
0.295	0.000747744000
0.296	0.000749251920
0.297	0.000750759840
0.298	0.000752267760
0.299	0.000753775680
0.300	0.000755283600
0.301	0.000755400360
0.302	0.000755517120
0.303	0.000755633880
0.304	0.000755750640
0.305	0.000755867400
0.306	0.000755984160
0.307	0.000754159440
0.308	0.000752334720
0.309	0.000750510000
0.310	0.000748685280
0.311	0.000746860560
0.312	0.000745035840
0.313	0.000741091320
0.314	0.000737146800
0.315	0.000733202280
0.316	0.000729257760
0.317	0.000725313240
0.318	0.000721368720
0.319	0.000715483284
0.320	0.000709597848
0.321	0.000703712412
0.322	0.000697826976
0.323	0.000691941540
0.324	0.000686056104
0.325	0.000678987444
0.326	0.000671918784
0.327	0.000664850124
0.328	0.000657781464
0.329	0.000650712804
0.330	0.000643644144
0.331	0.000637075080
0.332	0.000630506016
0.333	0.000623936952
0.334	0.000617367888
0.335	0.000610798824
0.336	0.000604229760
0.337	0.000600326592
0.338	0.000596423424
0.339	0.000592520256
0.340	0.000588617088
0.341	0.000584713920
0.342	0.000580810752
0.343	0.000581289744
0.344	0.000581768736
0.345	0.000582247728
0.346	0.000582726720
0.347	0.000583205712
0.348	0.000583684704
0.349	0.000588829872
0.350	0.000593975040
0.351	0.000599120208
0.352	0.000604265376
0.353	0.000609410544
0.354	0.000614555712
0.355	0.000623047800
0.356	0.000631539888
0.357	0.000640031976
0.358	0.000648524064
0.359	0.000657016152
0.360	0.000665508240
0.361	0.000675146640
0.362	0.000684785040
0.363	0.000694423440
0.364	0.000704061840
0.365	0.000713700240
0.366	0.000723338640
0.367	0.000732025440
0.368	0.000740712240
0.369	0.000749399040
0.370	0.000758085840
0.371	0.000766772640
0.372	0.000775459440
0.373	0.000782065800
0.374	0.000788672160
0.375	0.000795278520
0.376	0.000801884880
0.377	0.000808491240
0.378	0.000815097600
0.379	0.000819729240
0.380	0.000824360880
0.381	0.000828992520
0.382	0.000833624160
0.383	0.000838255800
0.384	0.000842887440
0.385	0.000846579120
0.386	0.000850270800
0.387	0.000853962480
0.388	0.000857654160
0.389	0.000861345840
0.390	0.000865037520
0.391	0.000869205600
0.392	0.000873373680
0.393	0.000877541760
0.394	0.000881709840
0.395	0.000885877920
0.396	0.000890046000
0.397	0.000895923960
0.398	0.000901801920
0.399	0.000907679880
0.400	0.000913557840
0.401	0.000919435800
0.402	0.000925313760
0.403	0.000933309480
0.404	0.000941305200
0.405	0.000949300920
0.406	0.000957296640
0.407	0.000965292360
0.408	0.000973288080
0.409	0.000982014720
0.410	0.000990741360
0.411	0.000999468000
0.412	0.001008194640
0.413	0.001016921280
0.414	0.001025647920
0.415	0.001032178680
0.416	0.001038709440
0.417	0.001045240200
0.418	0.001051770960
0.419	0.001058301720
0.420	0.001064832480
0.421	0.001066435080
0.422	0.001068037680
0.423	0.001069640280
0.424	0.001071242880
0.425	0.001072845480
0.426	0.001074448080
0.427	0.001070434440
0.428	0.001066420800
0.429	0.001062407160
0.430	0.001058393520
0.431	0.001054379880
0.432	0.001050366240
0.433	0.001042289040
0.434	0.001034211840
0.435	0.001026134640
0.436	0.001018057440
0.437	0.001009980240
0.438	0.001001903040
0.439	0.000992544120
0.440	0.000983185200
0.441	0.000973826280
0.442	0.000964467360
0.443	0.000955108440
0.444	0.000945749520
0.445	0.000937881120
0.446	0.000930012720
0.447	0.000922144320
0.448	0.000914275920
0.449	0.000906407520
0.450	0.000898539120
0.451	0.000893963040
0.452	0.000889386960
0.453	0.000884810880
0.454	0.000880234800
0.455	0.000875658720
0.456	0.000871082640
0.457	0.000870067440
0.458	0.000869052240
0.459	0.000868037040
0.460	0.000867021840
0.461	0.000866006640
0.462	0.000864991440
0.463	0.000865693920
0.464	0.000866396400
0.465	0.000867098880
0.466	0.000867801360
0.467	0.000868503840
0.468	0.000869206320
0.469	0.000868171080
0.470	0.000867135840
0.471	0.000866100600
0.472	0.000865065360
0.473	0.000864030120
0.474	0.000862994880
0.475	0.000856619520
0.476	0.000850244160
0.477	0.000843868800
0.478	0.000837493440
0.479	0.000831118080
0.480	0.000824742720
0.481	0.000810600600
0.482	0.000796458480
0.483	0.000782316360
0.484	0.000768174240
0.485	0.000754032120
0.486	0.000739890000
0.487	0.000717293892
0.488	0.000694697784
0.489	0.000672101676
0.490	0.000649505568
0.491	0.000626909460
0.492	0.000604313352
0.493	0.000573935592
0.494	0.000543557832
0.495	0.000513180072
0.496	0.000482802312
0.497	0.000452424552
0.498	0.000422046792
0.499	0.000385567404
0.500	0.000349088016
0.501	0.000312608628
0.502	0.000276129240
0.503	0.000239649852
0.504	0.000203170464
0.505	0.000163898276
0.506	0.000124626089
0.507	0.000085353901
0.508	0.000046081714
0.509	0.000006809526
0.510	-0.000032462662
0.511	-0.000070215498
0.512	-0.000107968334
0.513	-0.000145721171
0.514	-0.000183474007
0.515	-0.000221226844
0.516	-0.000258979680
0.517	-0.000291580884
0.518	-0.000324182088
0.519	-0.000356783292
0.520	-0.000389384496
0.521	-0.000421985700
0.522	-0.000454586904
0.523	-0.000481081716
0.524	-0.000507576528
0.525	-0.000534071340
0.526	-0.000560566152
0.527	-0.000587060964
0.528	-0.000613555776
0.529	-0.000636801240
0.530	-0.000660046704
0.531	-0.000683292168
0.532	-0.000706537632
0.533	-0.000729783096
0.534	-0.000753028560
0.535	-0.000778325880
0.536	-0.000803623200
0.537	-0.000828920520
0.538	-0.000854217840
0.539	-0.000879515160
0.540	-0.000904812480
0.541	-0.000937514520
0.542	-0.000970216560
0.543	-0.001002918600
0.544	-0.001035620640
0.545	-0.001068322680
0.546	-0.001101024720
0.547	-0.001143962880
0.548	-0.001186901040
0.549	-0.001229839200
0.550	-0.001272777360
0.551	-0.001315715520
0.552	-0.001358653680
0.553	-0.001408779480
0.554	-0.001458905280
0.555	-0.001509031080
0.556	-0.001559156880
0.557	-0.001609282680
0.558	-0.001659408480
0.559	-0.001708142760
0.560	-0.001756877040
0.561	-0.001805611320
0.562	-0.001854345600
0.563	-0.001903079880
0.564	-0.001951814160
0.565	-0.001989245040
0.566	-0.002026675920
0.567	-0.002064106800
0.568	-0.002101537680
0.569	-0.002138968560
0.570	-0.002176399440
0.571	-0.002195416920
0.572	-0.002214434400
0.573	-0.002233451880
0.574	-0.002252469360
0.575	-0.002271486840
0.576	-0.002290504320
0.577	-0.002288937120
0.578	-0.002287369920
0.579	-0.002285802720
0.580	-0.002284235520
0.581	-0.002282668320
0.582	-0.002281101120
0.583	-0.002261609760
0.584	-0.002242118400
0.585	-0.002222627040
0.586	-0.002203135680
0.587	-0.002183644320
0.588	-0.002164152960
0.589	-0.002132465280
0.590	-0.002100777600
0.591	-0.002069089920
0.592	-0.002037402240
0.593	-0.002005714560
0.594	-0.001974026880
0.595	-0.001937061120
0.596	-0.001900095360
0.597	-0.001863129600
0.598	-0.001826163840
0.599	-0.001789198080
0.600	-0.001752232320
0.601	-0.001719110880
0.602	-0.001685989440
0.603	-0.001652868000
0.604	-0.001619746560
0.605	-0.001586625120
0.606	-0.001553503680
0.607	-0.001535379600
0.608	-0.001517255520
0.609	-0.001499131440
0.610	-0.001481007360
0.611	-0.001462883280
0.612	-0.001444759200
0.613	-0.001451075400
0.614	-0.001457391600
0.615	-0.001463707800
0.616	-0.001470024000
0.617	-0.001476340200
0.618	-0.001482656400
0.619	-0.001517765520
0.620	-0.001552874640
0.621	-0.001587983760
0.622	-0.001623092880
0.623	-0.001658202000
0.624	-0.001693311120
0.625	-0.001755634440
0.626	-0.001817957760
0.627	-0.001880281080
0.628	-0.001942604400
0.629	-0.002004927720
0.630	-0.002067251040
0.631	-0.002150747640
0.632	-0.002234244240
0.633	-0.002317740840
0.634	-0.002401237440
0.635	-0.002484734040
0.636	-0.002568230640
0.637	-0.002665301160
0.638	-0.002762371680
0.639	-0.002859442200
0.640	-0.002956512720
0.641	-0.003053583240
0.642	-0.003150653760
0.643	-0.003254782440
0.644	-0.003358911120
0.645	-0.003463039800
0.646	-0.003567168480
0.647	-0.003671297160
0.648	-0.003775425840
0.649	-0.003882697800
0.650	-0.003989969760
0.651	-0.004097241720
0.652	-0.004204513680
0.653	-0.004311785640
0.654	-0.004419057600
0.655	-0.004528062840
0.656	-0.004637068080
0.657	-0.004746073320
0.658	-0.004855078560
0.659	-0.004964083800
0.660	-0.005073089040
0.661	-0.005180625840
0.662	-0.005288162640
0.663	-0.005395699440
0.664	-0.005503236240
0.665	-0.005610773040
0.666	-0.005718309840
0.667	-0.005815447560
0.668	-0.005912585280
0.669	-0.006009723000
0.670	-0.006106860720
0.671	-0.006203998440
0.672	-0.006301136160
0.673	-0.006376580880
0.674	-0.006452025600
0.675	-0.006527470320
0.676	-0.006602915040
0.677	-0.006678359760
0.678	-0.006753804480
0.679	-0.006799014120
0.680	-0.006844223760
0.681	-0.006889433400
0.682	-0.006934643040
0.683	-0.006979852680
0.684	-0.007025062320
0.685	-0.007034940840
0.686	-0.007044819360
0.687	-0.007054697880
0.688	-0.007064576400
0.689	-0.007074454920
0.690	-0.007084333440
0.691	-0.007055566440
0.692	-0.007026799440
0.693	-0.006998032440
0.694	-0.006969265440
0.695	-0.006940498440
0.696	-0.006911731440
0.697	-0.006845933520
0.698	-0.006780135600
0.699	-0.006714337680
0.700	-0.006648539760
0.701	-0.006582741840
0.702	-0.006516943920
0.703	-0.006425542080
0.704	-0.006334140240
0.705	-0.006242738400
0.706	-0.006151336560
0.707	-0.006059934720
0.708	-0.005968532880
0.709	-0.005869376160
0.710	-0.005770219440
0.711	-0.005671062720
0.712	-0.005571906000
0.713	-0.005472749280
0.714	-0.005373592560
0.715	-0.005273749320
0.716	-0.005173906080
0.717	-0.005074062840
0.718	-0.004974219600
0.719	-0.004874376360
0.720	-0.004774533120
0.721	-0.004650674160
0.722	-0.004526815200
0.723	-0.004402956240
0.724	-0.004279097280
0.725	-0.004155238320
0.726	-0.004031379360
0.727	-0.003839344440
0.728	-0.003647309520
0.729	-0.003455274600
0.730	-0.003263239680
0.731	-0.003071204760
0.732	-0.002879169840
0.733	-0.002576981160
0.734	-0.002274792480
0.735	-0.001972603800
0.736	-0.001670415120
0.737	-0.001368226440
0.738	-0.001066037760
0.739	-0.000635806680
0.740	-0.000205575600
0.741	0.000224655480
0.742	0.000654886560
0.743	0.001085117640
0.744	0.001515348720
0.745	0.002035813560
0.746	0.002556278400
0.747	0.003076743240
0.748	0.003597208080
0.749	0.004117672920
0.750	0.004638137760
0.751	0.005152878000
0.752	0.005667618240
0.753	0.006182358480
0.754	0.006697098720
0.755	0.007211838960
0.756	0.007726579200
0.757	0.008125012800
0.758	0.008523446400
0.759	0.008921880000
0.760	0.009320313600
0.761	0.009718747200
0.762	0.010117180800
0.763	0.010320163200
0.764	0.010523145600
0.765	0.010726128000
0.766	0.010929110400
0.767	0.011132092800
0.768	0.011335075200
0.769	0.011318900400
0.770	0.011302725600
0.771	0.011286550800
0.772	0.011270376000
0.773	0.011254201200
0.774	0.011238026400
0.775	0.011032867200
0.776	0.010827708000
0.777	0.010622548800
0.778	0.010417389600
0.779	0.010212230400
0.780	0.010007071200
0.781	0.009677289600
0.782	0.009347508000
0.783	0.009017726400
0.784	0.008687944800
0.785	0.008358163200
0.786	0.008028381600
0.787	0.007647024480
0.788	0.007265667360
0.789	0.006884310240
0.790	0.006502953120
0.791	0.006121596000
0.792	0.005740238880
0.793	0.005368407840
0.794	0.004996576800
0.795	0.004624745760
0.796	0.004252914720
0.797	0.003881083680
0.798	0.003509252640
0.799	0.003182571120
0.800	0.002855889600
0.801	0.002529208080
0.802	0.002202526560
0.803	0.001875845040
0.804	0.001549163520
0.805	0.001274374800
0.806	0.000999586080
0.807	0.000724797360
0.808	0.000450008640
0.809	0.000175219920
0.810	-0.000099568800
0.811	-0.000338478840
0.812	-0.000577388880
0.813	-0.000816298920
0.814	-0.001055208960
0.815	-0.001294119000
0.816	-0.001533029040
0.817	-0.001763176200
0.818	-0.001993323360
0.819	-0.002223470520
0.820	-0.002453617680
0.821	-0.002683764840
0.822	-0.002913912000
0.823	-0.003161599680
0.824	-0.003409287360
0.825	-0.003656975040
0.826	-0.003904662720
0.827	-0.004152350400
0.828	-0.004400038080
0.829	-0.004682648280
0.830	-0.004965258480
0.831	-0.005247868680
0.832	-0.005530478880
0.833	-0.005813089080
0.834	-0.006095699280
0.835	-0.006421721400
0.836	-0.006747743520
0.837	-0.007073765640
0.838	-0.007399787760
0.839	-0.007725809880
0.840	-0.008051832000
0.841	-0.008425662000
0.842	-0.008799492000
0.843	-0.009173322000
0.844	-0.009547152000
0.845	-0.009920982000
0.846	-0.010294812000
0.847	-0.010717662000
0.848	-0.011140512000
0.849	-0.011563362000
0.850	-0.011986212000
0.851	-0.012409062000
0.852	-0.012831912000
0.853	-0.013301329200
0.854	-0.013770746400
0.855	-0.014240163600
0.856	-0.014709580800
0.857	-0.015178998000
0.858	-0.015648415200
0.859	-0.016158906000
0.860	-0.016669396800
0.861	-0.017179887600
0.862	-0.017690378400
0.863	-0.018200869200
0.864	-0.018711360000
0.865	-0.019255999200
0.866	-0.019800638400
0.867	-0.020345277600
0.868	-0.020889916800
0.869	-0.021434556000
0.870	-0.021979195200
0.871	-0.022551524400
0.872	-0.023123853600
0.873	-0.023696182800
0.874	-0.024268512000
0.875	-0.024840841200
0.876	-0.025413170400
0.877	-0.026006722800
0.878	-0.026600275200
0.879	-0.027193827600
0.880	-0.027787380000
0.881	-0.028380932400
0.882	-0.028974484800
0.883	-0.029558635200
0.884	-0.030142785600
0.885	-0.030726936000
0.886	-0.031311086400
0.887	-0.031895236800
0.888	-0.032479387200
0.889	-0.032974764000
0.890	-0.033470140800
0.891	-0.033965517600
0.892	-0.034460894400
0.893	-0.034956271200
0.894	-0.035451648000
0.895	-0.035760837600
0.896	-0.036070027200
0.897	-0.036379216800
0.898	-0.036688406400
0.899	-0.036997596000
0.900	-0.037306785600
0.901	-0.037360290000
0.902	-0.037413794400
0.903	-0.037467298800
0.904	-0.037520803200
0.905	-0.037574307600
0.906	-0.037627812000
0.907	-0.037410474000
0.908	-0.037193136000
0.909	-0.036975798000
0.910	-0.036758460000
0.911	-0.036541122000
0.912	-0.036323784000
0.913	-0.035881496400
0.914	-0.035439208800
0.915	-0.034996921200
0.916	-0.034554633600
0.917	-0.034112346000
0.918	-0.033670058400
0.919	-0.033115308000
0.920	-0.032560557600
0.921	-0.032005807200
0.922	-0.031451056800
0.923	-0.030896306400
0.924	-0.030341556000
0.925	-0.029823381600
0.926	-0.029305207200
0.927	-0.028787032800
0.928	-0.028268858400
0.929	-0.027750684000
0.930	-0.027232509600
0.931	-0.026878357200
0.932	-0.026524204800
0.933	-0.026170052400
