Time(s)	Displacement(m)
0	0
0.01	2.83535870362647E-09
0.02	5.90122357316639E-09
0.03	9.40187713687094E-09
0.04	1.34353768301003E-08
0.05	1.7445475546056E-08
0.06	2.05608453845033E-08
0.07	2.21462505266174E-08
0.08	2.07094312810931E-08
0.09	1.33315385496084E-08
0.1	1.39227586236765E-09
0.11	-1.39568401384559E-08
0.12	-3.4756489040205E-08
0.13	-5.95536728017769E-08
0.14	-8.1781238362941E-08
0.15	-9.23133691523824E-08
0.16	-9.46918597979269E-08
0.17	-1.04634922074294E-07
0.18	-1.28872451781817E-07
0.19	-1.65634134295018E-07
0.2	-2.07765702750175E-07
0.21	-2.40661399857685E-07
0.22	-2.65660060415551E-07
0.23	-3.07092349078193E-07
0.24	-3.74516066332235E-07
0.25	-4.57362432153532E-07
0.26	-5.55694031128462E-07
0.27	-7.10744983138268E-07
0.28	-9.78996053178072E-07
0.29	-1.28948303034E-06
0.3	-1.58410764611368E-06
0.31	-1.84381322196485E-06
0.32	-2.06209376888477E-06
0.33	-2.20556303179073E-06
0.34	-2.315500923909E-06
0.35	-2.50381495196008E-06
0.36	-2.83524621167155E-06
0.37	-3.23660806550421E-06
0.38	-3.69672083682489E-06
0.39	-4.23101310915982E-06
0.4	-4.79075229236758E-06
0.41	-5.3815501508099E-06
0.42	-6.04604848308929E-06
0.43	-6.7520974979958E-06
0.44	-7.41502005915195E-06
0.45	-8.04975830518039E-06
0.46	-8.78653764210101E-06
0.47	-9.63133309485916E-06
0.48	-1.05021853298804E-05
0.49	-1.14244865717448E-05
0.5	-1.23345801828889E-05
0.51	-1.32381064150793E-05
0.52	-1.42173204139664E-05
0.53	-1.52637089130559E-05
0.54	-1.64119303149656E-05
0.55	-1.78066417262559E-05
0.56	-1.94894640919705E-05
0.57	-2.14816969184636E-05
0.58	-2.3672192807046E-05
0.59	-2.59400918653181E-05
0.6	-2.80987886724525E-05
0.61	-3.00694526531706E-05
0.62	-3.20276677122064E-05
0.63	-3.40873684589344E-05
0.64	-3.62733535410798E-05
0.65	-3.84472448416646E-05
0.66	-4.04614662806602E-05
0.67	-4.25138141792316E-05
0.68	-4.4874725909534E-05
0.69	-4.75871982705751E-05
0.7	-5.05669521248629E-05
0.71	-5.37642096293219E-05
0.72	-5.7047329221804E-05
0.73	-6.02554312167282E-05
0.74	-6.31446964162978E-05
0.75	-6.59249260706396E-05
0.76	-6.88594927382693E-05
0.77	-7.18077743240163E-05
0.78	-7.47256506020859E-05
0.79	-7.78475385630446E-05
0.8	-8.10148822856663E-05
0.81	-8.4086411146365E-05
0.82	-8.69580872114972E-05
0.83	-8.95770595734557E-05
0.84	-9.20110533372989E-05
0.85	-9.43324019781316E-05
0.86	-9.66039255872971E-05
0.87	-9.89213596612153E-05
0.88	-0.000101186731922272
0.89	-0.000103415926121151
0.9	-0.000106112520354809
0.91	-0.000109299827298317
0.92	-0.000113109328396927
0.93	-0.000118076991132723
0.94	-0.000123816461100585
0.95	-0.00012966362358264
0.96	-0.000135214520317682
0.97	-0.000140486275048831
0.98	-0.00014567085253259
0.99	-0.000150847095996614
1	-0.000156096829984396
1.01	-0.000161710352806312
1.02	-0.000167688001064157
1.03	-0.000174167587333884
1.04	-0.000181238131416716
1.05	-0.000188493002310753
1.06	-0.000195736175955759
1.07	-0.000203158032573113
1.08	-0.000210553158262933
1.09	-0.000217152630009713
1.1	-0.000222639992754686
1.11	-0.000227405397308299
1.12	-0.000232355803405
1.13	-0.000237400394082149
1.14	-0.000242438692756081
1.15	-0.000248052123307395
1.16	-0.000254389081980134
1.17	-0.000260737032218106
1.18	-0.000266493750979937
1.19	-0.00027172999271737
1.2	-0.000276790218566904
1.21	-0.000282356073403882
1.22	-0.000288908682028941
1.23	-0.000296360180504351
1.24	-0.00030432608013829
1.25	-0.000312460074798969
1.26	-0.000320536624608396
1.27	-0.00032837397882308
1.28	-0.000336035063980276
1.29	-0.000343956007526759
1.3	-0.000352410378513802
1.31	-0.000361269920862411
1.32	-0.000370024343227241
1.33	-0.000378163834879991
1.34	-0.000385687030053602
1.35	-0.000392747767172771
1.36	-0.000399543936825641
1.37	-0.00040676800560336
1.38	-0.00041449382288397
1.39	-0.000422397219934139
1.4	-0.00043050862184761
1.41	-0.000438788825905839
1.42	-0.000446583427231287
1.43	-0.000453322054150153
1.44	-0.000459727888413833
1.45	-0.000466665620111271
1.46	-0.00047407803497161
1.47	-0.00048247983890017
1.48	-0.000491804573913783
1.49	-0.000501357849254903
1.5	-0.000510263390422138
1.51	-0.000518394985551393
1.52	-0.000526346351373336
1.53	-0.000534535025249232
1.54	-0.000543072539165369
1.55	-0.000552113869845182
1.56	-0.00056134399800893
1.57	-0.00057038032350968
1.58	-0.000579035056491891
1.59	-0.000587436598990517
1.6	-0.000595858357769242
1.61	-0.000604829864338601
1.62	-0.000614397537213214
1.63	-0.000624183129631303
1.64	-0.000633619098137711
1.65	-0.000642210420866181
1.66	-0.000649856581006751
1.67	-0.000656857204010194
1.68	-0.000663311589999963
1.69	-0.000669918880979948
1.7	-0.000677665547912961
1.71	-0.000687451244110816
1.72	-0.000698793772489381
1.73	-0.000710782502939705
1.74	-0.000722489173636038
1.75	-0.000733726940232545
1.76	-0.000744217328624356
1.77	-0.000753890036837776
1.78	-0.000762756557913337
1.79	-0.000770660777270774
1.8	-0.000778288565570509
1.81	-0.000786221166474294
1.82	-0.000794610824158292
1.83	-0.000802953269933446
1.84	-0.000810500202067931
1.85	-0.000816498602090865
1.86	-0.000821122881413682
1.87	-0.000825175478212916
1.88	-0.000829643028222075
1.89	-0.000835245632492392
1.9	-0.000843597930729608
1.91	-0.000854663834473685
1.92	-0.00086820641195866
1.93	-0.000884011232873489
1.94	-0.000901111581658635
1.95	-0.000918788846872868
1.96	-0.000935607388551892
1.97	-0.000950332222794613
1.98	-0.000962240749356087
1.99	-0.000971605275797708
2	-0.000978079968316235
2.01	-0.000981265620153605
2.02	-0.000983367483179365
2.03	-0.000987611421050865
2.04	-0.000995959588091499
2.05	-0.00100821857862873
2.06	-0.00102362482444078
2.07	-0.00103966565555169
2.08	-0.00105486065819962
2.09	-0.00106924175072669
2.1	-0.00108438363034578
2.11	-0.00110174568989231
2.12	-0.00112198712746513
2.13	-0.00114533539092859
2.14	-0.00117357605192222
2.15	-0.00120629154363032
2.16	-0.00124185294124458
2.17	-0.00127960462899304
2.18	-0.00131932972284234
2.19	-0.00136077209446388
2.2	-0.00140203910475121
2.21	-0.00144100175573023
2.22	-0.00147495816528104
2.23	-0.00150385843183319
2.24	-0.00153146001933123
2.25	-0.00156286398888881
2.26	-0.00159881242703469
2.27	-0.00163710327976019
2.28	-0.00167554143466869
2.29	-0.00171497492526992
2.3	-0.00175769322758887
2.31	-0.00180486482073289
2.32	-0.00185659961996212
2.33	-0.00191307302040738
2.34	-0.0019724467165732
2.35	-0.00203386018762038
2.36	-0.00209729091936302
2.37	-0.00216149559008467
2.38	-0.00222364234766899
2.39	-0.00228088446256474
2.4	-0.00233500141771088
2.41	-0.00238816960348942
2.42	-0.00244005690582135
2.43	-0.00248929889153978
2.44	-0.00253583690621211
2.45	-0.00258262673372444
2.46	-0.00263157217960159
2.47	-0.00268307817107482
2.48	-0.00273558916770819
2.49	-0.00278692810051488
2.5	-0.00283681714987573
2.51	-0.00288863736152888
2.52	-0.00294763703003473
2.53	-0.00301357864631376
2.54	-0.0030852469575242
2.55	-0.00316182222813169
2.56	-0.00324053246363709
2.57	-0.00331697837020342
2.58	-0.00338543761313912
2.59	-0.00344479318654364
2.6	-0.0034957721935256
2.61	-0.00354124735482892
2.62	-0.00358248845387278
2.63	-0.00361970816353011
2.64	-0.00365395778618086
2.65	-0.00368656005750115
2.66	-0.00372083080078634
2.67	-0.00375883046530211
2.68	-0.00380218902917625
2.69	-0.00384950593482185
2.7	-0.00389615589556103
2.71	-0.00393449739184343
2.72	-0.00396298845834492
2.73	-0.00398303673522233
2.74	-0.00400025644339969
2.75	-0.00402101301509078
2.76	-0.00404848091806353
2.77	-0.00408147217968985
2.78	-0.00411774738723572
2.79	-0.00415609076889983
2.8	-0.00419181037130108
2.81	-0.00421522265787269
2.82	-0.00421288101176849
2.83	-0.00418762467168933
2.84	-0.00414908292701773
2.85	-0.00411339711500149
2.86	-0.00408958367842331
2.87	-0.00408081539495024
2.88	-0.00408093961766117
2.89	-0.00408509325614684
2.9	-0.00408952374677297
2.91	-0.00409048448671813
2.92	-0.00408468042067178
2.93	-0.00407143849000877
2.94	-0.00405517327501901
2.95	-0.00404139191754001
2.96	-0.00403302847887851
2.97	-0.00402988154894851
2.98	-0.00403075085793693
2.99	-0.0040318503780238
3	-0.00402901515529574
3.01	-0.0040143901059404
3.02	-0.00398165688088742
3.03	-0.00392434166531413
3.04	-0.00384912218845457
3.05	-0.0037698102143275
3.06	-0.00370044925820948
3.07	-0.003648343897901
3.08	-0.00361666839928422
3.09	-0.00360219561371637
3.1	-0.00359325349745719
3.11	-0.00358404661577932
3.12	-0.00357239902984042
3.13	-0.00355656906352178
3.14	-0.00352971736071888
3.15	-0.00348773075958508
3.16	-0.00343057029634416
3.17	-0.00335740637617096
3.18	-0.0032703744667848
3.19	-0.0031665371635192
3.2	-0.00304753931678012
3.21	-0.00292522028893715
3.22	-0.00281730834356313
3.23	-0.00273643372985263
3.24	-0.00268344930276931
3.25	-0.00265294622810616
3.26	-0.00262314739774605
3.27	-0.00257257697364976
3.28	-0.00247860105882125
3.29	-0.002338013176114
3.3	-0.002145185689843
3.31	-0.00190972307803291
3.32	-0.00164922899896849
3.33	-0.00138347539018773
3.34	-0.00113501369512641
3.35	-0.000922789829233182
3.36	-0.000768575755626221
3.37	-0.000669476231669737
3.38	-0.000624459728196962
3.39	-0.000618228977481732
3.4	-0.000633201422821013
3.41	-0.000662137675415108
3.42	-0.000692747896114912
3.43	-0.000706883871191982
3.44	-0.000669757884533351
3.45	-0.000563349586948793
3.46	-0.000362120459948501
3.47	-5.26713882643622E-05
3.48	0.000346319880288424
3.49	0.000828286782411018
3.5	0.00136755081541578
3.51	0.00194766159413321
3.52	0.00256902293001558
3.53	0.00322659587563779
3.54	0.00393193061720947
3.55	0.00469179374033149
3.56	0.00548234640129365
3.57	0.00627713204178822
3.58	0.00705503211925179
3.59	0.00781249530566534
3.6	0.00854860767398346
3.61	0.00926580291952947
3.62	0.00995827675033099
3.63	0.0106216875138194
3.64	0.0112740619808432
3.65	0.0119418113376589
3.66	0.0126479667298379
3.67	0.0133939744967631
3.68	0.0141793085078186
3.69	0.014986520625938
3.7	0.0157915098770227
3.71	0.0165460949057977
3.72	0.0172168083594874
3.73	0.0177763486554125
3.74	0.0182304895352699
3.75	0.0186173811599934
3.76	0.0189465312179091
3.77	0.0192210969234451
3.78	0.0194380186074256
3.79	0.0195855650341225
3.8	0.0196811878260924
3.81	0.0197274921984977
3.82	0.0197349518939097
3.83	0.0197342268226664
3.84	0.0197550733758579
3.85	0.0198147761250168
3.86	0.0199144078977923
3.87	0.0200606470568303
3.88	0.0202473912952861
3.89	0.0204756876180512
3.9	0.0207413352922737
3.91	0.0210160511644142
3.92	0.0212708605389991
3.93	0.0214844828665871
3.94	0.0216505149030498
3.95	0.0217487975213189
3.96	0.0217807240573724
3.97	0.0217593768848623
3.98	0.0217108052309742
3.99	0.0216706498192115
4	0.021656020681843
4.01	0.0216626383826463
4.02	0.0216631168589909
4.03	0.021616395614884
4.04	0.0214959763521719
4.05	0.0212992151480331
4.06	0.0210264058330685
4.07	0.0207101902274425
4.08	0.0203613080536086
4.09	0.0199859970650775
4.1	0.0195949062925429
4.11	0.0191890611961977
4.12	0.0187607802388769
4.13	0.0182975710672974
4.14	0.0177734227774102
4.15	0.0171799355262187
4.16	0.0165027413467388
4.17	0.0157280488705779
4.18	0.0148833296108779
4.19	0.0139799710811301
4.2	0.013027730273431
4.21	0.0120316703140616
4.22	0.0109805803884689
4.23	0.00988118682501435
4.24	0.00874599056854298
4.25	0.00759330070689947
4.26	0.00644237949071049
4.27	0.0052915519503441
4.28	0.00411566995321701
4.29	0.00288060799360079
4.3	0.00153203501007487
4.31	4.63061051060586E-05
4.32	-0.00157493490472506
4.33	-0.00333351746384409
4.34	-0.00516060380515205
4.35	-0.00700284608042364
4.36	-0.00879248534692079
4.37	-0.0104826513638482
4.38	-0.0120155258433304
4.39	-0.0133665881834635
4.4	-0.0145401332571396
4.41	-0.0155062412096141
4.42	-0.0163052972063794
4.43	-0.0169478208908643
4.44	-0.0174171546522705
4.45	-0.0177351050644865
4.46	-0.0178950841516332
4.47	-0.0179393854669217
4.48	-0.0179432140110901
4.49	-0.0179763820820786
4.5	-0.0180816523960571
4.51	-0.0182709257897064
4.52	-0.0185491645618743
4.53	-0.0188855236187354
4.54	-0.0192734266235323
4.55	-0.0197070629822256
4.56	-0.0201692612557524
4.57	-0.0206396307871021
4.58	-0.021087281962218
4.59	-0.0214867042971943
4.6	-0.0217997499473617
4.61	-0.0220229551795348
4.62	-0.0221359328144561
4.63	-0.0221142988378866
4.64	-0.0219747098755989
4.65	-0.0217208865490416
4.66	-0.021382820196089
4.67	-0.0209861506731666
4.68	-0.0205317756726183
4.69	-0.0200347523837567
4.7	-0.0195087037826519
4.71	-0.0189815213302728
4.72	-0.0184868901616789
4.73	-0.018055429917717
4.74	-0.0176964416911266
4.75	-0.0173933816749979
4.76	-0.0171326458695482
4.77	-0.0168868233867822
4.78	-0.0166320881283036
4.79	-0.0163307345526834
4.8	-0.0159608404796183
4.81	-0.0155022290736271
4.82	-0.0149624601095021
4.83	-0.0143868462715468
4.84	-0.0138226128310604
4.85	-0.0133033405212622
4.86	-0.0128347252516397
4.87	-0.0124158817899332
4.88	-0.0120194099442359
4.89	-0.0116222593470304
4.9	-0.0111958145652639
4.91	-0.0107236003931113
4.92	-0.0101782632062874
4.93	-0.00953474774490406
4.94	-0.00877622521473301
4.95	-0.00786380574269474
4.96	-0.00682002880724495
4.97	-0.00566085908752754
4.98	-0.00440304557717753
4.99	-0.00308433111126911
5	-0.0017083224512641
5.01	-0.000273526147010614
5.02	0.00121800346488715
5.03	0.00278067652970254
5.04	0.00441432367866619
5.05	0.00612191288822202
5.06	0.00791534345989803
5.07	0.00977823711110609
5.08	0.0117221220988225
5.09	0.0137649122797227
5.1	0.0159044783497638
5.11	0.0181587804714857
5.12	0.0205172665944627
5.13	0.0229515356390746
5.14	0.0253915116662299
5.15	0.0277167918215669
5.16	0.0297864811148169
5.17	0.0314417526165557
5.18	0.032665827058294
5.19	0.0333865196684502
5.2	0.0336445925695151
5.21	0.0335328183360053
5.22	0.0330712535596408
5.23	0.0323802673695792
5.24	0.0315181947561861
5.25	0.0305444778474523
5.26	0.0295568168549918
5.27	0.0286238460556457
5.28	0.0277855986569473
5.29	0.027044798889474
5.3	0.0264145589464121
5.31	0.0258696859881143
5.32	0.0253911285948366
5.33	0.0249813512302089
5.34	0.024641542804717
5.35	0.0244144846754502
5.36	0.0243557051723641
5.37	0.0244704481680189
5.38	0.0247704687602701
5.39	0.0252074671925797
5.4	0.0257423547500302
5.41	0.0263817099958315
5.42	0.0271155462738815
5.43	0.027960491953062
5.44	0.0289294722446086
5.45	0.0299928031453607
5.46	0.0311345172758235
5.47	0.0323277751703723
5.48	0.0335525276907469
5.49	0.034789609350311
5.5	0.036002259566105
5.51	0.037144160723166
5.52	0.0381419958726735
5.53	0.0389686093235278
5.54	0.0395736497517341
5.55	0.0399396082333675
5.56	0.0400882717974159
5.57	0.0399838710895753
5.58	0.0396554205511121
5.59	0.0391278690365166
5.6	0.0384189901336256
5.61	0.0376223186555041
5.62	0.0367924322663706
5.63	0.0359752528097878
5.64	0.0351907233982696
5.65	0.0344460572597546
5.66	0.0337269278903415
5.67	0.0330187298986915
5.68	0.0323158108355697
5.69	0.0316192691606787
5.7	0.0309405791244237
5.71	0.0303053608040114
5.72	0.0297327313380844
5.73	0.0292435862649697
5.74	0.0288131710903443
5.75	0.0283817889865851
5.76	0.027865793390089
5.77	0.0272212242880851
5.78	0.0264116323950263
5.79	0.0253778729736598
5.8	0.0241310622084112
5.81	0.022645170039452
5.82	0.020925235192735
5.83	0.0190013446120293
5.84	0.0168426598326381
5.85	0.0144816335272506
5.86	0.0119551898584815
5.87	0.00931190348335182
5.88	0.00664831792948267
5.89	0.00402286369349885
5.9	0.00148708321238822
5.91	-0.000927211364709033
5.92	-0.00314722083224804
5.93	-0.00513253617686821
5.94	-0.00686447375962807
5.95	-0.00828065042988006
5.96	-0.00945102650394187
5.97	-0.0103870516755977
5.98	-0.0110807241584839
5.99	-0.0115616935341798
6	-0.0117941056080148
6.01	-0.0117768521318379
6.02	-0.0115278832832325
6.03	-0.0110023988879517
6.04	-0.010236852040414
6.05	-0.0092340903104808
6.06	-0.00798147176091622
6.07	-0.00655338121328321
6.08	-0.00499664204647395
6.09	-0.00339028597153561
6.1	-0.00181069684288596
6.11	-0.000339765831858156
6.12	0.000977557823122647
6.13	0.00210910826544677
6.14	0.00298510412022508
6.15	0.00363087654483494
6.16	0.004034289996526
6.17	0.00420879846130934
6.18	0.00420572400326698
6.19	0.00401284170654604
6.2	0.00363601495338405
6.21	0.00306678470205009
6.22	0.00223708244244603
6.23	0.0011884473939219
6.24	-6.39549885558233E-05
6.25	-0.00149631815903307
6.26	-0.00305152638532984
6.27	-0.00471490540729626
6.28	-0.00645312900132517
6.29	-0.00823049380585413
6.3	-0.0100205123402598
6.31	-0.011795777822492
6.32	-0.0135299633706108
6.33	-0.015175627233724
6.34	-0.0166981919018202
6.35	-0.0180308673180708
6.36	-0.0191303732903746
6.37	-0.0200053539698047
6.38	-0.0206174145370431
6.39	-0.0210005619731255
6.4	-0.0211832572125668
6.41	-0.0211729629461874
6.42	-0.0210472327142709
6.43	-0.0208464640099264
6.44	-0.0206164917653819
6.45	-0.0203941788224756
6.46	-0.0202023700235152
6.47	-0.0200387483597241
6.48	-0.0198808542821518
6.49	-0.0196901583615893
6.5	-0.019447518959909
6.51	-0.0191445177694877
6.52	-0.018784206817637
6.53	-0.0183914823703643
6.54	-0.017988343399219
6.55	-0.017596565165235
6.56	-0.0172227321994147
6.57	-0.016861576534332
6.58	-0.0164906052117038
6.59	-0.0160819648354596
6.6	-0.015600937526215
6.61	-0.0150492044175657
6.62	-0.0144301538319966
6.63	-0.0137705682603663
6.64	-0.0131134349619351
6.65	-0.0125170049968559
6.66	-0.0120242092043
6.67	-0.0116667556317975
6.68	-0.0115045827790139
6.69	-0.0115261927428658
6.7	-0.011747156857673
6.71	-0.0121525190373913
6.72	-0.0126824997917968
6.73	-0.0132981244035559
6.74	-0.0139338317546478
6.75	-0.0145426730417017
6.76	-0.0150886756023581
6.77	-0.0155838797580887
6.78	-0.0160509576719745
6.79	-0.0165418596039315
6.8	-0.0171187896976767
6.81	-0.0178663237857051
6.82	-0.0188343565002066
6.83	-0.0200269821697995
6.84	-0.0214819466594627
6.85	-0.0231425900452221
6.86	-0.0249814628157626
6.87	-0.0269813425779249
6.88	-0.0290705843552166
6.89	-0.0311960165430187
6.9	-0.0332993624237786
6.91	-0.0353458602572015
6.92	-0.0372841897573922
6.93	-0.0390752289105182
6.94	-0.0406771943779705
6.95	-0.0420080703965265
6.96	-0.0430807004566689
6.97	-0.0438495785603192
6.98	-0.0442906939004156
6.99	-0.0444609660311039
7	-0.0443596440902724
7.01	-0.0440421578456011
7.02	-0.0435582327139537
7.03	-0.0429219813306033
7.04	-0.0422008764433901
7.05	-0.0414343056882024
7.06	-0.0406714807388082
7.07	-0.0399558985488493
7.08	-0.0393290467204862
7.09	-0.0388032517238534
7.1	-0.0383659277032855
7.11	-0.0380259755592272
7.12	-0.0377757619785391
7.13	-0.0376272301066296
7.14	-0.0375979486029672
7.15	-0.0376552889933435
7.16	-0.0377733958574271
7.17	-0.0379133734806065
7.18	-0.0380548504328898
7.19	-0.038208956884619
7.2	-0.0383994640924992
7.21	-0.0386524450405453
7.22	-0.0390191980708312
7.23	-0.0395055505945534
7.24	-0.0401130404551451
7.25	-0.0407973584935273
7.26	-0.0414860660695159
7.27	-0.042113863648531
7.28	-0.042639720053819
7.29	-0.0430484595188715
7.3	-0.0433099314211566
7.31	-0.043458182808106
7.32	-0.0435105896278108
7.33	-0.0434959965416285
7.34	-0.0434565598480808
7.35	-0.0434104354074061
7.36	-0.0433569223229458
7.37	-0.0432784802488091
7.38	-0.0431309407161272
7.39	-0.0428814367630437
7.4	-0.0424897162188839
7.41	-0.041892336392593
7.42	-0.0410902060881108
7.43	-0.0400413667390388
7.44	-0.0387347200451097
7.45	-0.0372160058441839
7.46	-0.0355288163751412
7.47	-0.0338061555858774
7.48	-0.0321685406959071
7.49	-0.0307482304083758
7.5	-0.0295578105660938
7.51	-0.0286274211460745
7.52	-0.0279646811654108
7.53	-0.0275127251497102
7.54	-0.027245457752472
7.55	-0.027086818510535
7.56	-0.0269803591083627
7.57	-0.0268910525512734
7.58	-0.0267803654363933
7.59	-0.0266091997159767
7.6	-0.0263375228218281
7.61	-0.0259705441030992
7.62	-0.0255051677116236
7.63	-0.0249546383070933
7.64	-0.0243345905179518
7.65	-0.0236451896584139
7.66	-0.0229156046365947
7.67	-0.0221764844877904
7.68	-0.0214680271899181
7.69	-0.0208111700822741
7.7	-0.0202283248794072
7.71	-0.0197400540263207
7.72	-0.0193549591847307
7.73	-0.0191041002585059
7.74	-0.0189755231194637
7.75	-0.0189530278014175
7.76	-0.0190248222527954
7.77	-0.0191414943013897
7.78	-0.0192731427809532
7.79	-0.0193885343099707
7.8	-0.0194714023384602
7.81	-0.0195207960098961
7.82	-0.0195676686202332
7.83	-0.0196495385878545
7.84	-0.0198190544350614
7.85	-0.0200921874465117
7.86	-0.0204985607620392
7.87	-0.021078770548185
